Charge,Potential
-1.0,-0.299
-0.9,-0.269
-0.8,-0.239
-0.7,-0.209
-0.6,-0.18
-0.5,-0.15
-0.4,-0.12
-0.3,-0.09
-0.2,-0.06
-0.1,-0.03
0.0,0.0
0.1,0.03
0.2,0.06
0.3,0.09
0.4,0.12
0.5,0.15
0.6,0.18
0.7,0.209
0.8,0.239
0.9,0.269
1.0,0.299
